Time,Amps,Volts,Torque 6V (N · m)
0.002,50.86,6.001,1.028
0.384,50.69,6.001,1.026
0.796,50.36,6.001,1.019
1.202,50.09,6.001,1.013
1.581,49.78,6.001,1.008
1.96,49.48,6.001,1.003
2.309,49.2,6.001,1
2.657,48.91,6.001,0.996
3.007,48.68,6.001,0.993
3.357,48.45,6.001,0.991
3.706,48.23,6.001,0.988
4.082,47.98,6.001,0.985
4.43,47.78,6.001,0.983
4.78,47.56,6.001,0.981
5.129,47.34,6.001,0.978
5.479,47.13,6.001,0.976
5.828,46.93,6.001,0.974
6.205,46.7,6.001,0.971
6.554,46.43,6.001,0.969
6.903,46.3,6.001,0.967
7.252,46.11,6.001,0.966
7.602,45.92,6.001,0.963
7.95,45.72,6.001,0.961
8.327,45.53,6.001,0.959
8.675,45.34,6.001,0.957
9.024,45.15,6.001,0.955
9.374,44.96,6.001,0.952
9.724,44.78,6.001,0.949
10.098,44.59,6.001,0.947
10.448,44.45,6.001,0.945
10.798,44.31,6.001,0.943
11.145,44.17,6.001,0.941
11.496,44.06,6.001,0.939
11.845,43.91,6.001,0.938
12.22,43.78,6.001,0.937
12.57,43.65,6.001,0.936
12.926,43.5,6.001,0.934
13.323,43.38,6.001,0.933
13.672,43.27,6.001,0.931
14.021,43.14,6.001,0.93
14.371,43.01,6.001,0.928
14.719,42.87,6.001,0.927
15.095,42.74,6.001,0.926
15.444,42.63,6.001,0.925
15.792,42.51,6.001,0.923
16.142,42.41,6.001,0.922
16.491,42.3,6.001,0.921
16.866,42.2,6.001,0.92
17.217,42.1,6.001,0.919
17.566,42,6.001,0.918
17.915,41.91,6.001,0.916
18.264,41.8,6.001,0.916
18.64,41.71,6.001,0.914
18.989,41.61,6.001,0.914
19.338,41.52,6.001,0.913
19.687,41.44,6.001,0.912
20.036,41.36,6.001,0.911
20.414,41.27,6.001,0.91
20.763,41.17,6.001,0.909
21.113,41.07,6.001,0.908
21.462,40.98,6.001,0.907
21.811,40.89,6.001,0.907
22.158,40.81,6.001,0.906
22.509,40.75,6.001,0.905
22.885,40.67,6.001,0.904
23.234,40.6,6.001,0.903
23.584,40.53,6.001,0.903
23.933,40.43,6.001,0.902
24.282,40.35,6.001,0.901
24.657,40.29,6.001,0.9
25.007,40.21,6.001,0.9
25.355,40.14,6.001,0.899
25.705,40.07,6.001,0.898
26.054,39.99,6.001,0.897
26.43,39.93,6.001,0.897
26.779,39.84,6.001,0.896
27.128,39.76,6.001,0.895
27.477,39.69,6.001,0.894
27.827,39.6,6.001,0.893
28.202,39.51,6.001,0.893
28.551,39.46,6.001,0.892
28.902,39.4,6.001,0.891
29.25,39.36,6.001,0.891
29.598,39.32,6.001,0.89
29.976,39.26,6.001,0.889
30.324,39.2,6.001,0.888
30.674,39.12,6.001,0.888
31.022,39.06,6.001,0.888
31.371,39,6.001,0.887
31.72,38.95,6.001,0.886
32.097,38.88,6.001,0.886
32.446,38.81,6.001,0.885
32.796,38.72,6.001,0.884
33.145,38.66,6.001,0.883
33.494,38.6,6.001,0.883
33.87,38.51,6.001,0.882
34.218,38.44,6.001,0.881
34.568,38.39,6.001,0.881
34.916,38.35,6.001,0.88
35.266,38.28,6.001,0.879
35.615,38.23,6.001,0.879
35.99,38.18,6.001,0.878
36.34,38.13,6.001,0.877
36.69,38.07,6.001,0.877
37.038,38.06,6.001,0.876
37.414,38.03,6.001,0.876
37.763,37.97,6.001,0.875
38.112,37.91,6.001,0.874
38.463,37.84,6.001,0.874
38.81,37.78,6.001,0.873
39.161,37.75,6.001,0.873
39.537,37.7,6.001,0.872
39.886,37.64,6.001,0.871
40.236,37.56,6.001,0.871
40.584,37.53,6.001,0.87
40.934,37.51,6.001,0.87
41.282,37.49,6.001,0.869
41.659,37.44,6.001,0.869
42.008,37.39,6.001,0.868
42.357,37.35,6.001,0.868
42.707,37.31,6.001,0.867
43.056,37.27,6.001,0.867
43.432,37.23,6.001,0.866
43.78,37.2,6.001,0.866
44.13,37.15,6.001,0.865
44.478,37.12,6.001,0.865
44.829,37.07,6.001,0.864
45.178,37.04,6.001,0.863
45.554,36.99,6.001,0.863
45.901,36.97,6.001,0.863
46.251,36.94,6.001,0.862
46.6,36.91,6.001,0.862
46.977,36.88,6.001,0.861
47.326,36.85,6.001,0.861
47.674,36.82,6.001,0.86
48.023,36.78,6.001,0.859
48.372,36.75,6.001,0.859
48.721,36.72,6.001,0.859
49.098,36.68,6.001,0.858
49.447,36.64,6.001,0.858
49.797,36.6,6.001,0.857
50.145,36.55,6.001,0.857
50.495,36.51,6.001,0.856
50.871,36.46,6.001,0.856
51.22,36.43,6.001,0.855
51.569,36.38,6.001,0.854
51.919,36.35,6.001,0.854
52.268,36.29,6.001,0.853
52.617,36.23,6.001,0.852
52.993,36.19,6.001,0.852
53.341,36.16,6.001,0.851
53.692,36.16,6.001,0.851
54.04,36.11,6.001,0.851
54.415,36.08,6.001,0.85
54.765,36.06,6.001,0.85
55.114,36.04,6.001,0.849
55.462,36.02,6.001,0.849
55.813,35.99,6.001,0.848
56.162,35.96,6.001,0.848
56.539,35.91,6.001,0.847
56.887,35.88,6.001,0.847
57.237,35.85,6.001,0.847
57.586,35.8,6.001,0.846
57.934,35.76,6.001,0.845
58.284,35.71,6.001,0.845
58.661,35.69,6.001,0.845
59.009,35.65,6.001,0.844
59.359,35.6,6.001,0.843
59.707,35.58,6.001,0.843
60.058,35.56,6.001,0.843
60.433,35.54,6.001,0.842
60.782,35.5,6.001,0.842
61.133,35.49,6.001,0.841
61.481,35.44,6.001,0.841
61.831,35.42,6.001,0.841
62.194,35.39,6.001,0.84
62.556,35.39,6.001,0.84
62.903,35.38,6.001,0.84
63.253,35.37,6.001,0.839
63.602,35.34,6.001,0.839
63.951,35.32,6.001,0.839
64.3,35.28,6.001,0.838
64.675,35.28,6.001,0.838
65.025,35.24,6.001,0.837
65.374,35.22,6.001,0.837
65.723,35.18,6.001,0.836
66.098,35.16,6.001,0.836
66.448,35.14,6.001,0.836
66.797,35.12,6.001,0.835
67.146,35.07,6.001,0.835
67.495,35.02,6.001,0.834
67.844,35,6.001,0.834
68.222,34.98,6.001,0.834
68.57,34.94,6.001,0.833
68.92,34.91,6.001,0.833
69.267,34.9,6.001,0.832
69.617,34.89,6.001,0.832
69.966,34.91,6.001,0.832
70.343,34.89,6.001,0.831
70.693,34.84,6.001,0.831
71.041,34.79,6.001,0.83
71.39,34.75,6.001,0.83
71.741,34.71,6.001,0.83
72.116,34.69,6.001,0.829
72.464,34.68,6.001,0.829
72.813,34.66,6.001,0.829
73.163,34.66,6.001,0.828
73.513,34.62,6.001,0.828
73.889,34.61,6.001,0.828
74.237,34.61,6.001,0.827
74.587,34.59,6.001,0.827
74.948,34.62,6.001,0.827
75.34,34.61,6.001,0.826
75.689,34.57,6.001,0.826
76.038,34.53,6.001,0.826
76.387,34.5,6.001,0.826
76.737,34.49,6.001,0.825
77.111,34.46,6.001,0.824
77.462,34.45,6.001,0.824
77.809,34.44,6.001,0.824
78.159,34.4,6.001,0.823
78.507,34.38,6.001,0.823
78.884,34.35,6.001,0.823
79.233,34.33,6.001,0.822
79.581,34.3,6.001,0.822
79.931,34.28,6.001,0.821
80.307,34.24,6.001,0.822
80.657,34.23,6.001,0.821
81.006,34.21,6.001,0.821
81.355,34.18,6.001,0.82
81.704,34.12,6.001,0.82
82.053,34.06,6.001,0.819
82.43,34.05,6.001,0.819
82.778,34.05,6.001,0.819
83.128,34.05,6.001,0.819
83.477,34.03,6.001,0.819
83.826,34.03,6.001,0.818
84.203,34.01,6.001,0.818
84.552,33.99,6.001,0.818
84.909,33.95,6.001,0.818
85.303,33.92,6.001,0.817
85.652,33.92,6.001,0.817
86.003,33.91,6.001,0.817
86.351,33.91,6.001,0.817
86.7,33.9,6.001,0.816
87.078,33.89,6.001,0.816
87.425,33.88,6.001,0.816
87.774,33.87,6.001,0.815
88.123,33.86,6.001,0.815
88.474,33.84,6.001,0.815
88.821,33.82,6.001,0.814
89.172,33.81,6.001,0.814
89.548,33.8,6.001,0.814
89.897,33.78,6.001,0.814
90.246,33.76,6.001,0.814
90.596,33.75,6.001,0.813
90.945,33.71,6.001,0.813
91.32,33.7,6.001,0.812
91.67,33.68,6.001,0.812
92.018,33.67,6.001,0.812
92.368,33.64,6.001,0.812
92.716,33.62,6.001,0.812
93.092,33.6,6.001,0.811
93.441,33.59,6.001,0.811
93.791,33.56,6.001,0.811
94.139,33.55,6.001,0.811
94.516,33.51,6.001,0.81
94.865,33.48,6.001,0.81
95.214,33.46,6.001,0.81
95.563,33.44,6.001,0.809
95.911,33.43,6.001,0.809
96.262,33.41,6.001,0.809
96.638,33.38,6.001,0.808
96.986,33.35,6.001,0.808
97.337,33.35,6.001,0.808
97.685,33.34,6.001,0.808
98.035,33.32,6.001,0.807
98.383,33.28,6.001,0.807
98.76,33.24,6.001,0.807
99.109,33.23,6.001,0.806
99.458,33.21,6.001,0.806
99.808,33.16,6.001,0.806
100.158,33.18,6.001,0.806
100.532,33.19,6.001,0.805
100.882,33.18,6.001,0.805
101.231,33.19,6.001,0.805
101.579,33.19,6.001,0.805
101.929,33.19,6.001,0.804
102.304,33.18,6.001,0.804
102.654,33.15,6.001,0.804
103.002,33.14,6.001,0.804
103.352,33.11,6.001,0.803
103.728,33.08,6.001,0.803
104.103,33.04,6.001,0.803
104.453,33.03,6.001,0.802
104.802,33.01,6.001,0.802
105.162,32.98,6.001,0.802
105.517,32.98,6.001,0.802
105.877,32.97,6.001,0.801
106.226,32.95,6.001,0.801
106.574,32.93,6.001,0.801
106.924,32.9,6.001,0.801
107.301,32.86,6.001,0.8
107.649,32.83,6.001,0.8
107.998,32.8,6.001,0.8
108.348,32.78,6.001,0.799
108.698,32.74,6.001,0.799
109.047,32.71,6.001,0.799
109.423,32.71,6.001,0.799
109.771,32.71,6.001,0.798
110.121,32.68,6.001,0.798
110.469,32.69,6.001,0.798
110.845,32.68,6.001,0.798
111.195,32.64,6.001,0.797
111.545,32.58,6.001,0.797
111.894,32.56,6.001,0.796
112.243,32.56,6.001,0.796
112.592,32.56,6.001,0.796
112.968,32.53,6.001,0.796
113.317,32.5,6.001,0.796
113.665,32.48,6.001,0.796
114.014,32.58,6.001,0.796
114.364,32.57,6.001,0.795
114.712,32.54,6.001,0.795
115.089,32.52,6.001,0.795
115.438,32.49,6.001,0.794
115.788,32.44,6.001,0.794
116.136,32.41,6.001,0.794
116.529,32.37,6.001,0.794
116.879,32.39,6.001,0.793
117.237,32.38,6.001,0.793
117.614,32.37,6.001,0.793
117.962,32.35,6.001,0.793
118.311,32.39,6.001,0.793
118.66,32.38,6.001,0.793
119.009,32.36,6.001,0.792
119.385,32.35,6.001,0.792
119.736,32.36,6.001,0.792
120.084,32.33,6.001,0.792
120.433,32.31,6.001,0.791
120.783,32.31,6.001,0.791
121.132,32.29,6.001,0.791
121.492,32.28,6.001,0.791
121.848,32.28,6.001,0.791
122.226,32.25,6.001,0.79
122.61,32.21,6.001,0.79
122.977,32.23,6.001,0.79
123.362,32.21,6.001,0.79
123.737,32.19,6.001,0.79
124.087,32.19,6.001,0.789
124.435,32.16,6.001,0.789
124.811,32.14,6.001,0.789
125.159,32.15,6.001,0.789
125.509,32.2,6.001,0.789
125.86,32.19,6.001,0.789
126.209,32.16,6.001,0.788
126.584,32.13,6.001,0.788
126.934,32.11,6.001,0.788
127.282,32.09,6.001,0.788
127.632,32.16,6.001,0.788
127.981,32.16,6.001,0.787
128.357,32.15,6.001,0.787
128.706,32.14,6.001,0.787
129.056,32.12,6.001,0.787
129.423,32.09,6.001,0.787
129.808,32.14,6.001,0.786
130.157,32.12,6.001,0.786
130.505,32.11,6.001,0.786
130.855,32.1,6.001,0.786
131.205,32.08,6.001,0.786
131.58,32.07,6.001,0.786
131.929,32.04,6.001,0.785
132.278,32.02,6.001,0.785
132.628,32,6.001,0.785
132.976,32,6.001,0.785
133.326,31.97,6.001,0.785
133.703,31.95,6.001,0.784
134.052,31.91,6.001,0.784
134.402,31.89,6.001,0.784
134.75,31.88,6.001,0.784
135.1,31.87,6.001,0.783
135.476,31.84,6.001,0.783
135.825,31.81,6.001,0.783
136.174,31.77,6.001,0.783
136.523,31.73,6.001,0.783
136.872,31.7,6.001,0.782
137.247,31.72,6.001,0.782
137.597,31.7,6.001,0.782
137.946,31.7,6.001,0.781
138.295,31.68,6.001,0.781
138.644,31.65,6.001,0.781
139.02,31.64,6.001,0.781
139.368,31.62,6.001,0.781
139.717,31.63,6.001,0.781
140.067,31.65,6.001,0.781
140.417,31.64,6.001,0.78
140.766,31.61,6.001,0.78
141.142,31.59,6.001,0.78
141.491,31.48,6.001,0.779
141.84,31.51,6.001,0.78
142.189,31.56,6.001,0.78
142.538,31.58,6.001,0.78
142.888,31.55,6.001,0.779
143.266,31.57,6.001,0.779
143.614,31.54,6.001,0.779
143.964,31.52,6.001,0.778
144.312,31.48,6.001,0.778
144.663,31.46,6.001,0.778
145.038,31.45,6.001,0.778
145.387,31.41,6.001,0.778
145.736,31.34,6.001,0.777
146.085,31.36,6.001,0.777
146.435,31.36,6.001,0.777
146.811,31.34,6.001,0.777
147.16,31.29,6.001,0.777
147.507,31.34,6.001,0.776
147.858,31.32,6.001,0.776
148.207,31.29,6.001,0.776
148.582,31.27,6.001,0.776
148.932,31.23,6.001,0.776
149.281,31.21,6.001,0.775
149.63,31.2,6.001,0.775
149.979,31.19,6.001,0.775
150.328,31.2,6.001,0.775
150.704,31.21,6.001,0.775
151.054,31.24,6.001,0.775
151.403,31.23,6.001,0.775
151.752,31.21,6.001,0.775
152.101,31.19,6.001,0.774
152.451,31.18,6.001,0.774
152.827,31.18,6.001,0.774
153.175,31.19,6.001,0.774
153.526,31.19,6.001,0.774
153.873,31.18,6.001,0.774
154.223,31.19,6.001,0.774
154.6,31.19,6.001,0.774
154.949,31.19,6.001,0.773
155.299,31.17,6.001,0.773
155.646,31.15,6.001,0.773
155.997,31.12,6.001,0.773
156.371,31.07,6.001,0.772
156.722,31.03,6.001,0.772
157.069,31.01,6.001,0.772
157.42,31.02,6.001,0.772
157.768,31,6.001,0.772
158.144,30.99,6.001,0.772
158.493,30.95,6.001,0.771
158.842,30.88,6.001,0.771
159.191,30.94,6.001,0.771
159.54,30.97,6.001,0.771
159.889,30.96,6.001,0.771
160.265,30.95,6.001,0.771
160.616,30.92,6.001,0.771
160.983,30.89,6.001,0.77
161.369,30.85,6.001,0.77
161.717,30.85,6.001,0.77
162.067,30.82,6.001,0.769
162.415,30.8,6.001,0.769
162.766,30.84,6.001,0.769
163.114,30.83,6.001,0.769
163.489,30.82,6.001,0.769
163.839,30.81,6.001,0.769
164.188,30.79,6.001,0.769
164.537,30.79,6.001,0.768
164.913,30.77,6.001,0.768
165.263,30.79,6.001,0.768
165.611,30.78,6.001,0.768
165.96,30.77,6.001,0.768
166.311,30.76,6.001,0.767
166.66,30.73,6.001,0.768
167.036,30.72,6.001,0.767
167.384,30.7,6.001,0.767
167.734,30.7,6.001,0.767
168.083,30.7,6.001,0.767
168.433,30.68,6.001,0.767
168.781,30.68,6.001,0.767
169.157,30.67,6.001,0.766
169.507,30.67,6.001,0.766
169.856,30.69,6.001,0.766
170.205,30.67,6.001,0.766
170.554,30.65,6.001,0.766
170.93,30.63,6.001,0.766
171.278,30.59,6.001,0.765
171.628,30.58,6.001,0.765
171.976,30.58,6.001,0.765
172.352,30.59,6.001,0.765
172.701,30.6,6.001,0.765
173.052,30.62,6.001,0.765
173.399,30.63,6.001,0.764
173.749,30.63,6.001,0.765
174.098,30.63,6.001,0.764
174.476,30.61,6.001,0.764
174.823,30.58,6.001,0.764
175.172,30.59,6.001,0.764
175.522,30.59,6.001,0.763
175.87,30.58,6.001,0.763
176.23,30.56,6.001,0.763
176.587,30.56,6.001,0.763
176.946,30.53,6.001,0.762
177.296,30.53,6.001,0.763
177.643,30.54,6.001,0.763
177.993,30.55,6.001,0.762
178.37,30.54,6.001,0.762
178.719,30.52,6.001,0.762
179.068,30.49,6.001,0.762
179.419,30.48,6.001,0.762
179.766,30.47,6.001,0.762
180.142,30.45,6.001,0.761
180.493,30.44,6.001,0.761
180.841,30.42,6.001,0.761
181.19,30.4,6.001,0.761
181.539,30.4,6.001,0.76
181.915,30.38,6.001,0.76
182.275,30.36,6.001,0.761
182.667,30.35,6.001,0.76
183.017,30.29,6.001,0.76
183.366,30.33,6.001,0.76
183.715,30.38,6.001,0.76
184.064,30.38,6.001,0.759
184.413,30.4,6.001,0.76
184.762,30.4,6.001,0.759
185.138,30.39,6.001,0.759
185.486,30.38,6.001,0.759
185.837,30.38,6.001,0.759
186.185,30.37,6.001,0.759
186.56,30.36,6.001,0.758
186.909,30.35,6.001,0.758
187.259,30.34,6.001,0.758
187.607,30.33,6.001,0.758
187.956,30.32,6.001,0.758
188.306,30.3,6.001,0.757
188.681,30.28,6.001,0.757
189.03,30.26,6.001,0.757
189.38,30.25,6.001,0.757
189.73,30.23,6.001,0.757
190.077,30.21,6.001,0.757
190.428,30.21,6.001,0.757
190.805,30.21,6.001,0.756
191.152,30.21,6.001,0.756
191.503,30.19,6.001,0.756
191.851,30.16,6.001,0.756
192.201,30.16,6.001,0.756
192.577,30.15,6.001,0.756
192.926,30.14,6.001,0.755
193.275,30.13,6.001,0.755
193.624,30.13,6.001,0.755
193.974,30.12,6.001,0.755
194.349,30.08,6.001,0.755
194.699,30.07,6.001,0.755
195.047,30.06,6.001,0.755
195.396,30.04,6.001,0.754
195.746,30.02,6.001,0.754
196.122,30.01,6.001,0.754
196.471,29.99,6.001,0.753
196.82,29.98,6.001,0.754
197.169,29.96,6.001,0.753
197.517,29.96,6.001,0.753
197.894,29.95,6.001,0.753
198.244,29.96,6.001,0.753
198.593,29.96,6.001,0.753
198.941,29.97,6.001,0.753
199.29,29.95,6.001,0.753
199.667,29.95,6.001,0.752
200.015,29.94,6.001,0.752
200.366,29.93,6.001,0.752
200.715,29.92,6.001,0.752
201.065,29.9,6.001,0.752
201.413,29.9,6.001,0.752
201.79,29.88,6.001,0.752
202.14,29.86,6.001,0.751
202.488,29.86,6.001,0.751
202.837,29.84,6.001,0.751
203.187,29.83,6.001,0.751
203.536,29.78,6.001,0.751
203.911,29.77,6.001,0.75
204.261,29.74,6.001,0.75
204.609,29.72,6.001,0.75
204.96,29.71,6.001,0.75
205.308,29.7,6.001,0.75
205.685,29.68,6.001,0.749
206.034,29.65,6.001,0.749
206.382,29.64,6.001,0.749
206.73,29.62,6.001,0.749
207.08,29.63,6.001,0.748
207.456,29.61,6.001,0.749
207.805,29.65,6.001,0.748
208.154,29.68,6.001,0.748
208.504,29.69,6.001,0.748
208.853,29.67,6.001,0.748
209.23,29.63,6.001,0.748
209.578,29.62,6.001,0.748
209.928,29.6,6.001,0.747
210.276,29.56,6.001,0.747
210.627,29.55,6.001,0.747
210.975,29.55,6.001,0.747
211.352,29.57,6.001,0.747
211.703,29.54,6.001,0.746
212.05,29.5,6.001,0.746
212.399,29.49,6.001,0.746
212.749,29.48,6.001,0.746
213.1,29.41,6.001,0.746
213.473,29.36,6.001,0.745
213.824,29.39,6.001,0.746
214.173,29.37,6.001,0.746
214.522,29.38,6.001,0.745
214.871,29.37,6.001,0.745
215.247,29.39,6.001,0.745
215.596,29.4,6.001,0.745
215.945,29.31,6.001,0.745
216.294,29.3,6.001,0.745
216.643,29.37,6.001,0.745
217.019,29.38,6.001,0.744
217.368,29.42,6.001,0.744
217.718,29.37,6.001,0.744
218.066,29.37,6.001,0.744
218.416,29.37,6.001,0.744
218.793,29.36,6.001,0.744
219.141,29.39,6.001,0.744
219.492,29.37,6.001,0.743
219.839,29.35,6.001,0.743
220.191,29.38,6.001,0.743
220.539,29.38,6.001,0.743
220.916,29.41,6.001,0.743
221.263,29.46,6.001,0.743
221.613,29.46,6.001,0.743
221.963,29.47,6.001,0.743
222.312,29.47,6.001,0.743
222.66,29.47,6.001,0.743
223.037,29.46,6.001,0.743
223.386,29.46,6.001,0.743
223.734,29.45,6.001,0.743
224.084,29.45,6.001,0.742
224.432,29.44,6.001,0.742
224.808,29.44,6.001,0.742
225.158,29.42,6.001,0.742
225.507,29.41,6.001,0.742
225.856,29.39,6.001,0.741
226.205,29.37,6.001,0.741
226.581,29.35,6.001,0.741
226.93,29.33,6.001,0.741
227.28,29.32,6.001,0.741
227.629,29.31,6.001,0.741
227.978,29.29,6.001,0.74
228.327,29.23,6.001,0.74
228.687,29.21,6.001,0.74
229.044,29.23,6.001,0.74
229.403,29.23,6.001,0.74
229.752,29.23,6.001,0.74
230.101,29.22,6.001,0.74
230.451,29.22,6.001,0.739
230.827,29.2,6.001,0.739
231.176,29.19,6.001,0.739
231.526,29.19,6.001,0.739
231.875,29.17,6.001,0.739
232.224,29.16,6.001,0.739
232.573,29.15,6.001,0.738
232.949,29.15,6.001,0.738
233.297,29.14,6.001,0.738
233.648,29.11,6.001,0.738
233.996,29.09,6.001,0.738
234.371,29.11,6.001,0.738
234.722,29.16,6.001,0.737
235.07,29.12,6.001,0.738
235.42,29.13,6.001,0.738
235.769,29.13,6.001,0.737
236.118,29.14,6.001,0.738
236.493,29.13,6.001,0.737
236.842,29.15,6.001,0.737
237.192,29.14,6.001,0.737
237.542,29.14,6.001,0.737
237.89,29.14,6.001,0.736
238.24,29.13,6.001,0.737
238.616,29.13,6.001,0.736
238.964,29.12,6.001,0.736
239.314,29.12,6.001,0.736
239.663,29.12,6.001,0.736
240.012,29.11,6.001,0.736
240.388,29.09,6.001,0.736
240.739,29.09,6.001,0.736
241.087,29.09,6.001,0.736
241.436,29.08,6.001,0.735
241.785,29.07,6.001,0.735
242.16,29.06,6.001,0.735
242.523,29.05,6.001,0.735
242.912,29.05,6.001,0.735
243.261,29.04,6.001,0.735
243.61,29.01,6.001,0.735
243.96,29.01,6.001,0.734
244.309,28.99,6.001,0.734
244.659,28.99,6.001,0.734
245.007,28.97,6.001,0.734
245.384,28.97,6.001,0.734
245.734,28.96,6.001,0.734
246.082,28.95,6.001,0.734
246.432,28.94,6.001,0.734
246.781,28.94,6.001,0.733
247.173,28.92,6.001,0.733
247.532,28.91,6.001,0.733
247.883,28.9,6.001,0.733
248.231,28.89,6.001,0.733
248.608,28.88,6.001,0.733
248.956,28.88,6.001,0.733
249.306,28.88,6.001,0.733
249.653,28.87,6.001,0.732
250.03,28.84,6.001,0.732
250.38,28.83,6.001,0.732
250.73,28.82,6.001,0.732
251.077,28.82,6.001,0.732
251.427,28.81,6.001,0.732
251.776,28.79,6.001,0.731
252.154,28.79,6.001,0.732
252.502,28.77,6.001,0.731
252.852,28.77,6.001,0.731
253.2,28.76,6.001,0.731
253.55,28.75,6.001,0.731
253.898,28.74,6.001,0.731
254.275,28.73,6.001,0.731
254.624,28.7,6.001,0.73
254.973,28.69,6.001,0.73
255.323,28.67,6.001,0.73
255.672,28.63,6.001,0.73
256.048,28.6,6.001,0.73
256.396,28.65,6.001,0.73
256.746,28.65,6.001,0.729
257.094,28.62,6.001,0.729
257.444,28.57,6.001,0.729
257.819,28.57,6.001,0.729
258.169,28.57,6.001,0.729
258.519,28.56,6.001,0.729
258.866,28.56,6.001,0.729
259.216,28.56,6.001,0.729
259.591,28.55,6.001,0.728
259.942,28.54,6.001,0.728
260.291,28.53,6.001,0.728
260.638,28.52,6.001,0.728
260.987,28.51,6.001,0.728
261.337,28.5,6.001,0.728
261.714,28.52,6.001,0.728
262.063,28.48,6.001,0.728
262.413,28.49,6.001,0.728
262.761,28.52,6.001,0.727
263.111,28.53,6.001,0.728
263.487,28.53,6.001,0.727
263.837,28.52,6.001,0.727
264.186,28.5,6.001,0.728
264.535,28.63,6.001,0.727
264.884,28.65,6.001,0.727
265.233,28.65,6.001,0.728
265.612,28.64,6.001,0.727
266.012,28.65,6.001,0.727
266.379,28.65,6.001,0.727
266.738,28.64,6.001,0.727
267.087,28.64,6.001,0.727
267.463,28.63,6.001,0.727
267.811,28.62,6.001,0.727
268.161,28.62,6.001,0.727
268.509,28.61,6.001,0.727
268.859,28.6,6.001,0.727
269.208,28.58,6.001,0.726
